time,WOB,WOB_0,WOB_SP,RPM,RPM_0,RPM_SP,ROP,T,MSE,dMSEdWOB,dMSEdRPM
[s],[kg],[kg],[kg],[rpm],[rpm],[rpm],[m/hr],[Nm],[MPa],[MPa/kg],[MPa/rpm]
0,3250,13000,13000,53.3333333333333,160,160,2.26488831753174,1904.01463875,222.711304634264,0,0
1,5687.5,13000,13000,88.8888888888889,160,160,10.6059242594676,4561.221748125,190.265432940766,0,0
2,7515.625,13000,13000,112.592592592593,160,160,19.9237256057278,6554.12708015625,184.604750613812,0,0
3,8886.71875,13000,13000,128.395061728395,160,160,28.2451565306977,8048.80607917969,182.546577741286,0,0
4,9915.0390625,13000,13000,138.930041152263,160,160,33.2364241762779,9169.81532844727,191.318777958256,0,0
5,10686.279296875,13000,13000,145.953360768176,160,160,35.1699034222821,10010.5722653979,207.348444718735,0,0
6,11264.7094726563,13000,13000,150.63557384545,160,160,35.5887702232732,10641.139968111,224.761347920273,0,0
7,11698.5321044922,13000,13000,153.7570492303,160,160,35.3734140419593,11114.0657451457,241.024244894993,0,0
8,12023.8990783691,13000,13000,155.8380328202,160,160,34.954710370302,11468.7600779218,255.055860518393,0,0
9,12267.9243087769,13000,13000,157.225355213467,160,160,34.520736784074,11734.7808275038,266.566430094183,0,0
10,12450.9432315826,13000,13000,158.150236808978,160,160,34.1417391923394,11934.2963896904,275.689704862419,0,0
11,12588.207423687,13000,13000,158.766824539319,160,160,33.835173925842,12083.9330613303,282.750239555298,0,0
12,12691.1555677652,13000,13000,159.177883026212,160,160,33.5971062441324,12196.1605650602,288.124803444915,0,0
13,12768.3666758239,13000,13000,159.451922017475,160,160,33.4165342666985,12280.3311928577,292.169999764014,0,0
14,12826.2750068679,13000,13000,159.634614678317,160,160,33.2814942463706,12343.4591637057,295.191719492705,0,0
15,12869.706255151,13000,13000,159.756409785544,160,160,33.1813652689169,12390.8051418418,297.437923963399,0,0
16,12902.2796913632,13000,13000,159.837606523696,160,160,33.1074974855183,12426.3146254439,299.102675955535,0,0
17,12926.7097685224,13000,13000,159.891737682464,160,160,33.0531567140011,12452.9467381454,300.33445990643,0,0
18,12945.0323263918,13000,13000,159.927825121643,160,160,33.0132343288656,12472.9208226715,301.245225502462,0,0
19,12958.7742447939,13000,13000,159.951883414429,160,160,32.9839148866202,12487.9013860662,301.918574699827,0,0
20,12969.0806835954,13000,13000,159.967922276286,160,160,32.9623757847609,12499.1368086121,302.416562397281,0,0
21,12976.8105126965,13000,13000,159.978614850857,160,160,32.9465408119433,12507.5633755216,302.785080494942,0,0
22,12982.6078845224,13000,13000,159.985743233905,160,160,32.9348877172541,12513.8833007037,303.057998322807,0,0
23,12986.9559133918,13000,13000,159.99049548927,160,160,32.9263021788833,12518.6232445903,303.260289117544,0,0
24,12990.2169350439,13000,13000,159.993663659513,160,160,32.9199688768059,12522.1782025052,303.410363646165,0,0
25,12992.6627012829,13000,13000,159.995775773009,160,160,32.9152910990833,12524.8444209414,303.521799385057,0,0
26,12994.4970259622,13000,13000,159.997183848673,160,160,32.9118317891095,12526.8440847686,303.604616153494,0,0
27,12995.8727694716,13000,13000,159.998122565782,160,160,32.9092704767992,12528.3438326389,303.666214822081,0,0
28,12996.9045771037,13000,13000,159.998748377188,160,160,32.907371874052,12529.4686435417,303.712067280472,0,0
29,12997.6784328278,13000,13000,159.999165584792,160,160,32.9059629905833,12530.3122517188,303.746223441306,0,0
30,12998.2588246208,13000,13000,159.999443723195,160,160,32.9049164551709,12530.9449578516,303.771683925177,0,0
31,12998.6941184656,13000,13000,159.999629148796,160,160,32.9041383501203,12531.4194874512,303.790674214128,0,0
32,12999.0205888492,13000,13000,159.999752765864,160,160,32.9035593272958,12531.7753846509,303.804846523757,0,0
33,12999.2654416369,13000,13000,159.999835177243,160,160,32.9031281113358,12532.0423075507,303.815428620423,0,0
34,12999.4490812277,13000,13000,159.999890118162,160,160,32.9028067411676,12532.2424997255,303.823333659996,0,0
35,12999.5868109208,13000,13000,159.999926745441,160,160,32.9025670790253,12532.3926438566,303.829241357218,0,0
36,12999.6901081906,13000,13000,159.999951163628,160,160,32.9023882451268,12532.505251955,303.833658041592,0,0
37,12999.7675811429,13000,13000,159.999967442418,160,160,32.9022547295057,12532.5897080287,303.836961143861,0,0
38,12999.8256858572,13000,13000,159.999978294946,160,160,32.9021550000676,12532.653050084,303.839432186177,0,0
39,12999.8692643929,13000,13000,159.999985529964,160,160,32.9020804749225,12532.7005566255,303.841281272546,0,0
40,12999.9019482947,13000,13000,159.999990353309,160,160,32.9020247625846,12532.7361865317,303.842665287188,0,0
41,12999.926461221,13000,13000,159.999993568873,160,160,32.9019830994749,12532.7629089612,303.843701429615,0,0
42,12999.9448459158,13000,13000,159.999995712582,160,160,32.9019519329778,12532.7829507834,303.844477289728,0,0
43,12999.9586344368,13000,13000,159.999997141721,160,160,32.9019286120356,12532.7979821501,303.845058353114,0,0
44,12999.9689758276,13000,13000,159.999998094481,160,160,32.9019111573057,12532.8092556751,303.845493595873,0,0
45,12999.9767318707,13000,13000,159.999998729654,160,160,32.9018980902555,12532.8177108188,303.845819657913,0,0
46,12999.982548903,13000,13000,159.999999153103,160,160,32.9018883059731,12532.8240521766,303.846063957658,0,0
47,12999.9869116773,13000,13000,159.999999435402,160,160,32.9018809784356,12532.8288081949,303.846247017889,0,0
48,12999.990183758,13000,13000,159.999999623601,160,160,32.9018754899008,12532.8323752087,303.846384203312,0,0
49,12999.9926378185,13000,13000,159.999999749067,160,160,32.9018713782466,12532.835050469,303.846487019196,0,0
50,12999.9944783638,13000,13000,159.999999832712,160,160,32.9018682976713,12532.8370569143,303.84656408231,0,0
51,12999.9958587729,13000,13000,159.999999888474,160,160,32.9018659893503,12532.8385617482,303.846621847108,0,0
52,12999.9968940797,13000,13000,159.99999992565,160,160,32.9018642595169,12532.8396903737,303.846665149011,0,0
53,12999.9976705597,13000,13000,159.999999950433,160,160,32.9018629630802,12532.8405368427,303.846697610973,0,0
54,12999.9982529198,13000,13000,159.999999966955,160,160,32.9018619913783,12532.8411716946,303.8467219478,0,0
55,12999.9986896899,13000,13000,159.99999997797,160,160,32.9018612630189,12532.8416478334,303.846740193991,0,0
56,12999.9990172674,13000,13000,159.999999985314,160,160,32.9018607170275,12532.8420049376,303.846753874346,0,0
57,12999.9992629505,13000,13000,159.999999990209,160,160,32.9018603077194,12532.8422727657,303.846764131755,0,0
58,12999.9994472129,13000,13000,159.999999993473,160,160,32.9018600008619,12532.8424736368,303.846771822906,0,0
59,12999.9995854097,13000,13000,159.999999995648,160,160,32.9018597708012,12532.8426242901,303.846777589998,0,0
60,12999.9996890573,13000,13200,159.999999997099,160,162,32.9018595983106,12532.8427372801,303.846781914471,0,0
61,13049.9997667929,13000,13200,160.666666664733,160,162,32.6115447559138,12587.3496345225,309.144854986398,0,0
62,13087.4998250947,13000,13200,161.111111109822,160,162,32.4046297136791,12628.2298074544,312.976591308204,0,0
63,13115.624868821,13000,13200,161.407407406548,160,162,32.2580053638416,12658.8899371533,315.730832584633,0,0
64,13136.7186516158,13000,13200,161.604938271032,160,162,32.154387873051,12681.8850344275,317.704099104401,0,0
65,13152.5389887118,13000,13200,161.736625514021,160,162,32.0812183306661,12699.1313573831,319.116053326895,0,0
66,13164.4042415339,13000,13200,161.824417009348,160,162,32.0295208942691,12712.0660995998,320.126497291426,0,0
67,13173.3031811504,13000,13200,161.882944672898,160,162,31.9929415871039,12721.7671562624,320.850391019997,0,0
68,13179.9773858628,13000,13200,161.921963115266,160,162,31.9670062329881,12729.0429487593,321.369891162455,0,0
69,13184.9830393971,13000,13200,161.947975410177,160,162,31.9485724091653,12734.499793132,321.743505819089,0,0
70,13188.7372795478,13000,13200,161.965316940118,160,162,31.9354346956216,12738.5924264115,322.012843971727,0,0
71,13191.5529596609,13000,13200,161.976877960079,160,162,31.926044506709,12741.6619013711,322.207498638602,0,0
72,13193.6647197457,13000,13200,161.984585306719,160,162,31.9193129754285,12743.9640075908,322.348539502103,0,0
73,13195.2485398092,13000,13200,161.989723537813,160,162,31.9144729576181,12745.6905872556,322.450994176721,0,0
74,13196.4364048569,13000,13200,161.993149025209,160,162,31.9109826649526,12746.9855220042,322.525604618036,0,0
75,13197.3273036427,13000,13200,161.995432683472,160,162,31.9084584227688,12747.9567230657,322.58006858527,0,0
76,13197.995477732,13000,13200,161.996955122315,160,162,31.906627732481,12748.6851238617,322.619917120512,0,0
77,13198.496608299,13000,13200,161.997970081543,160,162,31.9052964669876,12749.2314244588,322.64913539031,0,0
78,13198.8724562243,13000,13200,161.998646721029,160,162,31.9043259011172,12749.6411499066,322.670602709424,0,0
79,13199.1543421682,13000,13200,161.999097814019,160,162,31.9036165913694,12749.9484439925,322.686405103657,0,0
80,13199.3657566261,13000,13200,161.999398542679,160,162,31.9030970326615,12750.1789145568,322.698057901504,0,0
81,13199.5243174696,13000,13200,161.999599028453,160,162,31.9027156534765,12750.3517674801,322.706664692364,0,0
82,13199.6432381022,13000,13200,161.999732685635,160,162,31.9024351496743,12750.4814071726,322.713031171177,0,0
83,13199.7324285767,13000,13200,161.999821790424,160,162,31.9022284610622,12750.5786369419,322.717746913317,0,0
84,13199.7993214325,13000,13200,161.999881193616,160,162,31.9020759052841,12750.651559269,322.721244286668,0,0
85,13199.8494910744,13000,13200,161.999920795744,160,162,31.9019631295531,12750.7062510142,322.723841015983,0,0
86,13199.8871183058,13000,13200,161.999947197163,160,162,31.9018796421787,12750.7472698232,322.725771022736,0,0
87,13199.9153387293,13000,13200,161.999964798108,160,162,31.9018177564588,12750.7780339299,322.727206830809,0,0
88,13199.936504047,13000,13200,161.999976532072,160,162,31.901771828817,12750.8011070099,322.728275886956,0,0
89,13199.9523780352,13000,13200,161.999984354715,160,158,31.901737707577,12750.8184118199,322.729072478081,0,0
90,13199.9642835264,13000,13200,160.666656236477,160,158,32.3378980231915,12750.8313904274,315.792982200546,0,0
91,13199.9732126448,13000,13200,159.777770824318,160,158,32.621143420856,12750.8411243831,311.343405691176,0,0
92,13199.9799094836,13000,13200,159.185180549545,160,158,32.8065709061172,12750.8484248498,308.451533805455,0,0
93,13199.9849321127,13000,13200,158.790120366363,160,158,32.9286601783141,12750.8539001999,306.55588162611,0,0
94,13199.9886990845,13000,13200,158.526746910909,160,158,33.0093684050693,12750.8580067124,305.306210910239,0,0
95,13199.9915243134,13000,13200,158.351164607273,160,158,33.062868005125,12750.8610865968,304.479295654124,0,0
96,13199.9936432351,13000,13200,158.234109738182,160,158,33.0983978852915,12750.8633965101,303.930756540505,0,0
97,13199.9952324263,13000,13200,158.156073158788,160,158,33.1220235542455,12750.8651289451,303.566277311734,0,0
98,13199.9964243197,13000,13200,158.104048772525,160,158,33.1377467984982,12750.8664282713,303.323830889172,0,0
99,13199.9973182398,13000,13200,158.06936584835,160,158,33.1482167923546,12750.867402766,303.162440948249,0,0
100,13199.9979886798,13000,13200,158.0462438989,160,158,33.1551913250133,12750.868133637,303.05495586143,0,0
101,13199.9984915099,13000,13200,158.030829265933,160,158,33.1598385455963,12750.8686817902,302.983348121951,0,0
102,13199.9988686324,13000,13200,158.020552843956,160,158,33.1629355664069,12750.8690929052,302.935632091837,0,0
103,13199.9991514743,13000,13200,158.01370189597,160,158,33.1649997244387,12750.8694012414,302.903831914017,0,0
104,13199.9993636057,13000,13200,158.009134597314,160,158,33.16637558113,12750.8696324935,302.882636862192,0,0
105,13199.9995227043,13000,13200,158.006089731542,160,158,33.1672926960864,12750.8698059327,302.868509377217,0,0
106,13199.9996420282,13000,13200,158.004059821028,160,158,33.1679040422236,12750.869936012,302.859092410521,0,0
107,13199.9997315212,13000,13200,158.002706547352,160,158,33.1683115710152,12750.8700335715,302.852815203339,0,0
108,13199.9997986409,13000,13200,158.001804364901,160,158,33.1685832359901,12750.8701067411,302.848630866827,0,0
109,13199.9998489807,13000,13200,158.001202909934,160,158,33.1687643327926,12750.8701616183,302.845841611619,0,0
110,13199.9998867355,13000,13200,158.000801939956,160,158,33.1688850552126,12750.8702027763,302.843982313338,0,0
111,13199.9999150516,13000,13200,158.000534626637,160,158,33.1689655307301,12750.8702336447,302.842742925418,0,0
112,13199.9999362887,13000,13200,158.000356417758,160,158,33.1690191767212,12750.870256796,302.84191677073,0,0
113,13199.9999522165,13000,13200,158.000237611839,160,158,33.1690549375467,12750.8702741595,302.841366076981,0,0
114,13199.9999641624,13000,13200,158.000158407893,160,158,33.1690787757638,12750.8702871821,302.840999004003,0,0
115,13199.9999731218,13000,13200,158.000105605262,160,158,33.1690946661776,12750.8702969491,302.840754330449,0,0
116,13199.9999798414,13000,13200,158.000070403508,160,158,33.1691052584971,12750.8703042743,302.840591245904,0,0
117,13199.999984881,13000,13200,158.000046935672,160,158,33.16911231908,12750.8703097682,302.840482546168,0,0
118,13199.9999886608,13000,13200,158.000031290448,160,158,33.1691170254143,12750.8703138887,302.840410097115,0,0
119,13199.9999914956,13000,12800,158.000020860299,160,162,33.1691201624306,12750.870316979,302.84036181081,0,0
120,13099.9999936217,13000,12800,159.333347240199,160,162,32.9360557742159,12641.8566942968,304.902928116479,0,0
121,13024.9999952163,13000,12800,160.222231493466,160,162,32.7921216215636,12560.0964772851,305.942520277387,0,0
122,12968.7499964122,13000,12800,160.814820995644,160,162,32.7054687178468,12498.7763145263,306.374818010174,0,0
123,12926.5624973091,13000,12800,161.209880663763,160,162,32.6549352704965,12452.7861924572,306.464927977517,0,0
124,12894.9218729819,13000,12800,161.473253775842,160,162,32.6267632909554,12418.2936009054,306.376054588178,0,0
125,12871.1914047364,13000,12800,161.648835850561,160,162,32.6121514937464,12392.4241572416,306.205260606013,0,0
126,12853.3935535523,13000,12800,161.765890567041,160,162,32.6055490612276,12373.0220744937,306.007958004002,0,0
127,12840.0451651642,13000,12800,161.843927044694,160,162,32.6035063507259,12358.4705124328,305.814000772943,0,0
128,12830.0338738732,13000,12800,161.895951363129,160,162,32.6039162147373,12347.5568408871,305.637972915942,0,0
129,12822.5254054049,13000,12800,161.930634242086,160,162,32.6055197634212,12339.3715872278,305.485628271143,0,0
130,12816.8940540537,13000,12800,161.953756161391,160,162,32.6075875943457,12333.2326469833,305.357844500428,0,0
131,12812.6705405402,13000,12800,161.969170774261,160,162,32.6097159986813,12328.6284418,305.253000182361,0,0
132,12809.5029054052,13000,12800,161.97944718284,160,162,32.6116978437852,12325.1752879125,305.168366441918,0,0
133,12807.1271790539,13000,12800,161.986298121894,160,162,32.6134416081041,12322.5854224969,305.100891739341,0,0
134,12805.3453842904,13000,12800,161.990865414596,160,162,32.6149212509768,12320.6430234352,305.0476192743,0,0
135,12804.0090382178,13000,12800,161.993910276397,160,162,32.6161456795967,12319.1862241389,305.005886810793,0,0
136,12803.0067786634,13000,12800,161.995940184265,160,162,32.6171405602636,12318.0936246667,304.973401563665,0,0
137,12802.2550839975,13000,12800,161.997293456176,160,162,32.6179378192553,12317.2741750625,304.948246637738,0,0
138,12801.6913129981,13000,12800,161.998195637451,160,162,32.6185698653617,12316.6595878594,304.928852834943,0,0
139,12801.2684847486,13000,12800,161.998797091634,160,162,32.6190666564597,12316.198647457,304.913955553373,0,0
140,12800.9513635615,13000,12800,161.999198061089,160,162,32.6194544339633,12315.8529421553,304.902547848449,0,0
141,12800.7135226711,13000,12800,161.99946537406,160,162,32.6197553977127,12315.593663179,304.893835495343,0,0
142,12800.5351420033,13000,12800,161.999643582706,160,162,32.6199878789007,12315.3992039467,304.887196798836,0,0
143,12800.4013565025,13000,12800,161.999762388471,160,162,32.6201667480925,12315.2533595225,304.882148125594,0,0
144,12800.3010173769,13000,12800,161.999841592314,160,162,32.6203039071067,12315.1439762044,304.878315168829,0,0
145,12800.2257630326,13000,12800,161.999894394876,160,162,32.6204087820363,12315.0619387158,304.875409472673,0,0
146,12800.1693222745,13000,12800,161.999929596584,160,162,32.6204887758798,12315.0004105994,304.873209541843,0,0
147,12800.1269917059,13000,12800,161.999953064389,160,162,32.6205496633347,12314.954264512,304.871545817529,0,0
148,12800.0952437794,13000,12800,161.999968709593,160,162,32.6205959238176,12314.9196549465,304.870288837995,0,0
149,12800.0714328345,13000,12800,161.999979139729,160,158,32.620631015876,12314.8936977724,304.869339977885,0,0
150,12800.0535746259,13000,12800,160.666652759819,160,158,33.0200599062256,12314.8742298918,298.735556296653,0,0
151,12800.0401809694,13000,12800,159.777768506546,160,158,33.2785931603526,12314.8596289813,294.796390896355,0,0
152,12800.0301357271,13000,12800,159.185179004364,160,158,33.4474533398744,12314.8486782985,292.23444469825,0,0
153,12800.0226017953,13000,12800,158.790119336243,160,158,33.558459221204,12314.8404652864,290.554277563719,0,0
154,12800.0169513465,13000,12800,158.526746224162,160,158,33.6317625366848,12314.8343055273,289.446307367623,0,0
155,12800.0127135099,13000,12800,158.351164149441,160,158,33.6803190394427,12314.829685708,288.712990534908,0,0
156,12800.0095351324,13000,12800,158.234109432961,160,158,33.7125510295523,12314.8262208435,288.226458998486,0,0
157,12800.0071513493,13000,12800,158.156072955307,160,158,33.7339772728639,12314.8236221951,287.903138464356,0,0
158,12800.005363512,13000,12800,158.104048636871,160,158,33.7482340647102,12314.8216732088,287.68804647816,0,0
159,12800.004022634,13000,12800,158.069365757914,160,158,33.7577264983379,12314.8202114691,287.544851405752,0,0
160,12800.0030169755,13000,12800,158.04624383861,160,158,33.7640494693742,12314.8191151643,287.449474936956,0,0
161,12800.0022627316,13000,12800,158.03082922574,160,158,33.7682624640559,12314.8182929358,287.385927966563,0,0
162,12800.0016970487,13000,12800,158.02055281716,160,158,33.7710701299519,12314.8176762643,287.343578968627,0,0
163,12800.0012727865,13000,12800,158.013701878107,160,158,33.7729414893332,12314.8172137607,287.315352552628,0,0
164,12800.0009545899,13000,12800,158.009134585404,160,158,33.7741888955688,12314.8168668831,287.296537191405,0,0
165,12800.0007159424,13000,12800,158.006089723603,160,158,33.7750204399394,12314.8166067248,287.283994221356,0,0
166,12800.0005369568,13000,12800,158.004059815735,160,158,33.7755747870088,12314.8164116061,287.275632213155,0,0
167,12800.0004027176,13000,12800,158.002706543824,160,158,33.7759443527279,12314.8162652671,287.270057306027,0,0
168,12800.0003020382,13000,12800,158.001804362549,160,158,33.776190736358,12314.8161555128,287.266340429976,0,0
169,12800.0002265287,13000,12800,158.001202908366,160,158,33.7763549995214,12314.8160731971,287.263862266885,0,0
170,12800.0001698965,13000,12800,158.000801938911,160,158,33.7764645149866,12314.8160114603,287.262209955086,0,0
171,12800.0001274224,13000,12800,158.00053462594,160,158,33.7765375308172,12314.8159651577,287.261108253235,0,0
172,12800.0000955668,13000,12800,158.000356417294,160,158,33.7765862124017,12314.8159304308,287.260373661136,0,0
173,12800.0000716751,13000,12800,158.000237611529,160,158,33.7766186701639,12314.8159043856,287.259883838271,0,0
174,12800.0000537563,13000,12800,158.000158407686,160,158,33.7766403112456,12314.8158848517,287.259557217862,0,0
175,12800.0000403172,13000,12800,158.000105605124,160,158,33.7766547405833,12314.8158702013,287.259339416722,0,0
176,12800.0000302379,13000,12800,158.000070403416,160,158,33.776664361613,12314.8158592135,287.259194175166,0,0
