time,WOB,WOB_0,WOB_SP,RPM,RPM_0,RPM_SP,ROP,T,MSE,dMSEdWOB,dMSEdRPM
[s],[kg],[kg],[kg],[rpm],[rpm],[rpm],[m/hr],[Nm],[MPa],[MPa/kg],[MPa/rpm]
0,2000,8000,8000,30,90,90,0.540483459975666,949.975875,261.686601017816,0,0
1,3500,8000,8000,50,90,90,2.51743532058493,2176.54870125,214.780927499294,0,0
2,4625,8000,8000,63.3333333333333,90,90,5.4351357865981,3402.9519825,197.194829216254,0,0
3,5468.75,8000,8000,72.2222222222222,90,90,8.11921166104237,4322.7544434375,191.347809128388,0,0
4,6101.5625,8000,8000,78.1481481481481,90,90,10.3445714932955,5012.60628914062,188.533500550881,0,0
5,6576.171875,8000,8000,82.0987654320988,90,90,12.0960112733304,5529.99517341797,186.937475056191,0,0
6,6932.12890625,8000,8000,84.7325102880658,90,90,13.4349800230359,5918.03683662598,185.945731742963,0,0
7,7199.0966796875,8000,8000,86.4883401920439,90,90,14.4413536838259,6209.06808403198,185.293462753297,0,0
8,7399.32250976563,8000,8000,87.6588934613626,90,90,15.1901759061213,6427.34151958649,184.848039930016,0,0
9,7549.49188232422,8000,8000,88.4392623075751,90,90,15.7441258461592,6591.04659625236,184.535905965698,0,0
10,7662.11891174316,8000,8000,88.95950820505,90,90,16.1526297944891,6713.82540375177,184.313150977654,0,0
11,7746.58918380737,8000,8000,89.3063388033667,90,90,16.4534450734829,6805.90950937633,184.152087315267,0,0
12,7809.94188785553,8000,8000,89.5375592022445,90,90,16.6748862389984,6874.97258859475,184.034517142404,0,0
13,7857.45641589165,8000,8000,89.6917061348296,90,90,16.8379559978681,6926.76989800856,183.948095464216,0,0
14,7893.09231191874,8000,8000,89.7944707565531,90,90,16.958135447119,6965.61788006892,183.884242770736,0,0
15,7919.81923393905,8000,8000,89.8629805043687,90,90,17.0467970575944,6994.75386661419,183.836885357993,0,0
16,7939.86442545429,8000,8000,89.9086536695792,90,90,17.1122824162116,7016.60585652314,183.801662522965,0,0
17,7954.89831909072,8000,8000,89.9391024463861,90,90,17.1607081032162,7032.99484895486,183.775409764522,0,0
18,7966.17373931804,8000,8000,89.9594016309241,90,90,17.1965612642647,7045.28659327864,183.755811945729,0,0
19,7974.63030448853,8000,8000,89.972934420616,90,90,17.2231367907981,7054.50540152148,183.741164895516,0,0
20,7980.9727283664,8000,8000,89.9819562804107,90,90,17.2428570688046,7061.41950770361,183.730208348087,0,0
21,7985.7295462748,8000,8000,89.9879708536071,90,90,17.2575054640181,7066.60508734021,183.722007051921,0,0
22,7989.2971597061,8000,8000,89.9919805690714,90,90,17.2683967672193,7070.49427206766,183.715865122304,0,0
23,7991.97286977957,8000,8000,89.9946537127143,90,90,17.2765016903071,7073.41116061324,183.711263752315,0,0
24,7993.97965233468,8000,8000,89.9964358084762,90,90,17.2825379003272,7075.59882702243,183.707815576892,0,0
25,7995.48473925101,8000,8000,89.9976238723175,90,90,17.287036679935,7077.23957682932,183.705231047984,0,0
26,7996.61355443826,8000,8000,89.9984159148783,90,90,17.2903918178475,7078.47013918449,183.703293552113,0,0
27,7997.46016582869,8000,8000,89.9989439432522,90,90,17.2928955259922,7079.39306095087,183.701840936625,0,0
28,7998.09512437152,8000,8000,89.9992959621681,90,90,17.2947648698605,7080.08525227565,183.700751759747,0,0
29,7998.57134327864,8000,8000,89.9995306414454,90,90,17.2961612494113,7080.60439576924,183.699935037201,0,0
30,7998.92850745898,8000,8000,89.9996870942969,90,90,17.297204780079,7080.99375338943,183.699322585333,0,0
31,7999.19638059424,8000,8000,89.999791396198,90,90,17.2979849245354,7081.28577160457,183.698863297072,0,0
32,7999.39728544568,8000,8000,89.9998609307986,90,90,17.2985683634075,7081.50478526593,183.698518859357,0,0
33,7999.54796408426,8000,8000,89.9999072871991,90,90,17.2990048293614,7081.66904551195,183.698260547089,0,0
34,7999.66097306319,8000,8000,89.9999381914661,90,90,17.2993314365831,7081.79224069646,183.698066821899,0,0
35,7999.7457297974,8000,8000,89.9999587943107,90,90,17.2995758971153,7081.88463708485,183.697921533073,0,0
36,7999.80929734805,8000,8000,89.9999725295405,90,90,17.2997589125641,7081.95393437613,183.697812569305,0,0
37,7999.85697301103,8000,8000,89.9999816863603,90,90,17.2998959541701,7082.0059073446,183.697730848082,0,0
38,7999.89272975828,8000,8000,89.9999877909069,90,90,17.299998588714,7082.04488707095,183.697669558067,0,0
39,7999.91954731871,8000,8000,89.9999918606046,90,90,17.3000754668447,7082.07412186571,183.697623591062,0,0
40,7999.93966048903,8000,8000,89.9999945737364,90,90,17.3001330602562,7082.09604796178,183.697589116095,0,0
41,7999.95474536677,8000,8000,89.9999963824909,90,90,17.3001762118563,7082.11249253384,183.697563260029,0,0
42,7999.96605902508,8000,8000,89.9999975883273,90,90,17.3002085465836,7082.12482596288,183.697543868071,0,0
43,7999.97454426881,8000,8000,89.9999983922182,90,90,17.3002327783137,7082.13407603466,183.697529324152,0,0
44,7999.98090820161,8000,8000,89.9999989281455,90,90,17.3002509392342,7082.14101358849,183.697518416242,0,0
45,7999.98568115121,8000,8000,89.9999992854303,90,90,17.3002645513398,7082.14621675387,183.697510235326,0,0
46,7999.9892608634,8000,8000,89.9999995236202,90,90,17.3002747546958,7082.1501191279,183.697504099647,0,0
47,7999.99194564755,8000,8000,89.9999996824135,90,90,17.3002824033973,7082.15304590843,183.697499497894,0,0
48,7999.99395923566,8000,8000,89.9999997882756,90,90,17.3002881373798,7082.15524099382,183.697496046581,0,0
49,7999.99546942675,8000,8000,89.9999998588504,90,90,17.3002924361709,7082.15688730786,183.697493458098,0,0
50,7999.99660207006,8000,8000,89.9999999059003,90,90,17.3002956591337,7082.1581220434,183.697491516737,0,0
51,7999.99745155255,8000,8000,89.9999999372668,90,90,17.3002980756022,7082.15904809505,183.697490060717,0,0
52,7999.99808866441,8000,8000,89.9999999581779,90,90,17.300299887451,7082.15974263379,183.697488968702,0,0
53,7999.99856649831,8000,8000,89.9999999721186,90,90,17.3003012460027,7082.16026353784,183.697488149691,0,0
54,7999.99892487373,8000,8000,89.9999999814124,90,90,17.3003022646932,7082.16065421588,183.697487535433,0,0
55,7999.9991936553,8000,8000,89.9999999876083,90,90,17.3003030285621,7082.16094722441,183.697487074739,0,0
56,7999.99939524147,8000,8000,89.9999999917388,90,90,17.3003036013646,7082.16116698081,183.697486729219,0,0
57,7999.99954643111,8000,8000,89.9999999944926,90,90,17.3003040309003,7082.16133179811,183.697486470079,0,0
58,7999.99965982333,8000,8000,89.9999999963284,90,90,17.3003043530079,7082.16145541108,183.697486275724,0,0
59,7999.9997448675,8000,8000,89.9999999975523,90,90,17.3003045945593,7082.16154812081,183.697486129958,0,0
60,7999.99980865062,8000,8200,89.9999999983682,90,92,17.3003047757031,7082.16161765311,183.697486020633,0,0
61,8049.99985648797,8000,8200,90.6666666655788,90,92,17.5713831666047,7136.66848230233,183.612535160152,0,0
62,8087.49989236598,8000,8200,91.1111111103858,90,92,17.7652388572051,7177.54863078925,183.549791906071,0,0
63,8115.62491927448,8000,8200,91.4074074069239,90,92,17.9040658215047,7208.20874215444,183.503269875599,0,0
64,8136.71868945586,8000,8200,91.6049382712826,90,92,18.0036781413289,7231.20382567833,183.468675331256,0,0
65,8152.5390170919,8000,8200,91.7366255141884,90,92,18.0753164284466,7248.45013832125,183.442894734896,0,0
66,8164.40426281892,8000,8200,91.8244170094589,90,92,18.1269650000429,7261.38487280343,183.423651551141,0,0
67,8173.30319711419,8000,8200,91.8829446729726,90,92,18.1642982452913,7271.08592366508,183.409270758745,0,0
68,8179.97739783564,8000,8200,91.9219631153151,90,92,18.191354513118,7278.36171181131,183.398514060006,0,0
69,8184.98304837673,8000,8200,91.94797541021,90,92,18.2110134980097,7283.81855292098,183.390462736458,0,0
70,8188.73728628255,8000,8200,91.96531694014,90,92,18.2253335400737,7287.91118375324,183.384433334206,0,0
71,8191.55296471191,8000,8200,91.9768779600933,90,92,18.2357897475755,7290.98065687743,183.37991638646,0,0
72,8193.66472353393,8000,8200,91.9845853067289,90,92,18.2434421740162,7293.28276172057,183.376531542655,0,0
73,8195.24854265045,8000,8200,91.9897235378193,90,92,18.2490547511456,7295.00934035292,183.373994520824,0,0
74,8196.43640698784,8000,8200,91.9931490252128,90,92,18.2531795605699,7296.3042743272,183.372092659947,0,0
75,8197.32730524088,8000,8200,91.9954326834752,90,92,18.2562166878785,7297.2754748079,183.370666773334,0,0
76,8197.99547893066,8000,8200,91.9969551223168,90,92,18.2584568481148,7298.00387516842,183.369597644588,0,0
77,8198.49660919799,8000,8200,91.9979700815446,90,92,18.2601118287591,7298.55017543882,183.36879595897,0,0
78,8198.8724568985,8000,8200,91.9986467210297,90,92,18.2613362965357,7298.95990064161,183.368194785265,0,0
79,8199.15434267387,8000,8200,91.9990978140198,90,92,18.262243464888,7299.26719454371,183.367743955887,0,0
80,8199.3657570054,8000,8200,91.9993985426799,90,92,18.262916384161,7299.49766497028,183.367405862482,0,0
81,8199.52431775405,8000,8200,91.9995990284532,90,92,18.263416101286,7299.67051779021,183.36715230853,0,0
82,8199.64323831554,8000,8200,91.9997326856355,90,92,18.2637875737421,7299.80015740516,183.366962152122,0,0
83,8199.73242873665,8000,8200,91.9998217904237,90,92,18.2640639675752,7299.89738711637,183.36681953991,0,0
84,8199.79932155249,8000,8200,91.9998811936158,90,92,18.2642697891521,7299.97030939978,183.366712583616,0,0
85,8199.84949116437,8000,8200,91.9999207957438,90,92,18.2644231727401,7300.02500111233,183.366632368007,0,0
86,8199.88711837328,8000,8200,91.9999471971626,90,92,18.2645375553368,7300.06601989675,183.366572207207,0,0
87,8199.91533877996,8000,8200,91.9999647981084,90,92,18.264622905539,7300.09678398506,183.366527087117,0,0
88,8199.93650408497,8000,8200,91.9999765320723,90,92,18.2646866270194,7300.1198570513,183.366493247336,0,0
89,8199.95237806373,8000,8200,91.9999843547148,90,88,18.2647342240115,7300.13716185097,183.366467867662,0,0
90,8199.9642835478,8000,8200,90.6666562364766,90,88,18.0000629537467,7300.15014045073,183.366448832997,0,0
91,8199.97321266085,8000,8200,89.7777708243177,90,88,17.8236176923897,7300.15987440055,183.36643455705,0,0
92,8199.97990949564,8000,8200,89.1851805495451,90,88,17.7059893323855,7300.16717486291,183.366423850118,0,0
93,8199.98493212173,8000,8200,88.7901203663634,90,88,17.6275718489509,7300.17265020968,183.366415819935,0,0
94,8199.98869909129,8000,8200,88.526746910909,90,88,17.575294625367,7300.17675671976,183.366409797307,0,0
95,8199.99152431847,8000,8200,88.3511646072726,90,88,17.540443982647,7300.17983660232,183.366405280341,0,0
96,8199.99364323885,8000,8200,88.2341097381818,90,88,17.5172108584056,7300.18214651424,183.366401892619,0,0
97,8199.99523242914,8000,8200,88.1560731587878,90,88,17.5017225910002,7300.18387894818,183.36639935183,0,0
98,8199.99642432186,8000,8200,88.1040487725252,90,88,17.4913974429182,7300.18517827364,183.366397446238,0,0
99,8199.99731824139,8000,8200,88.0693658483501,90,88,17.4845142844823,7300.18615276773,183.366396017045,0,0
100,8199.99798868104,8000,8200,88.0462438989001,90,88,17.4799257178945,7300.1868836383,183.366394945151,0,0
101,8199.99849151078,8000,8200,88.0308292659334,90,88,17.4768668280241,7300.18743179122,183.36639414123,0,0
102,8199.99886863309,8000,8200,88.0205528439556,90,88,17.4748276841238,7300.18784290592,183.36639353829,0,0
103,8199.99915147481,8000,8200,88.0137018959704,90,88,17.473468341928,7300.18815124194,183.366393086085,0,0
104,8199.99936360611,8000,8200,88.0091345973136,90,88,17.4725621791313,7300.18838249395,183.366392746931,0,0
105,8199.99952270458,8000,8200,88.0060897315424,90,88,17.4719581196158,7300.18855593297,183.366392492565,0,0
106,8199.99964202844,8000,8200,88.0040598210283,90,88,17.4715554500416,7300.18868601222,183.366392301791,0,0
107,8199.99973152133,8000,8200,88.0027065473522,90,88,17.4712870312396,7300.18878357167,183.366392158711,0,0
108,8199.999798641,8000,8200,88.0018043649014,90,88,17.4711081060591,7300.18885674125,183.3663920514,0,0
109,8199.99984898075,8000,8200,88.0012029099343,90,88,17.4709888381221,7300.18891161844,183.366391970918,0,0
110,8199.99988673556,8000,8200,88.0008019399562,90,88,17.470909337802,7300.18895277633,183.366391910555,0,0
111,8199.99991505167,8000,8200,88.0005346266375,90,88,17.4708563463173,7300.18898364475,183.366391865284,0,0
112,8199.99993628875,8000,8200,88.0003564177583,90,88,17.4708210252075,7300.18900679606,183.36639183133,0,0
113,8199.99995221657,8000,8200,88.0002376118389,90,88,17.470797482711,7300.18902415954,183.366391805865,0,0
114,8199.99996416242,8000,8200,88.0001584078926,90,88,17.4707817913959,7300.18903718216,183.366391786766,0,0
115,8199.99997312182,8000,8200,88.0001056052617,90,88,17.4707713332811,7300.18904694912,183.366391772442,0,0
116,8199.99997984136,8000,8200,88.0000704035078,90,88,17.470764363276,7300.18905427434,183.366391761699,0,0
117,8199.99998488102,8000,8200,88.0000469356719,90,88,17.4707597181595,7300.18905976825,183.366391753641,0,0
118,8199.99998866077,8000,8200,88.0000312904479,90,88,17.4707566225804,7300.18906388869,183.366391747598,0,0
119,8199.99999149557,8000,7800,88.0000208602986,90,92,17.4707545597349,7300.18906697902,183.366391743066,0,0
120,8099.99999362168,8000,7800,89.3333472401991,90,92,17.4538095447099,7191.17544429676,183.529059100283,0,0
121,8024.99999521626,8000,7800,90.2222314934661,90,92,17.414137508904,7109.41522728507,183.654823686804,0,0
122,7968.74999641219,8000,7800,90.814820995644,90,92,17.3674589002495,7048.0950645263,183.75134513534,0,0
123,7926.56249730915,8000,7800,91.2098806637627,90,92,17.3216923565043,7002.10494245723,183.825008201251,0,0
124,7894.92187298186,8000,7800,91.4732537758418,90,92,17.2804584574986,6967.61235090542,183.880986521788,0,0
125,7871.19140473639,8000,7800,91.6488358505612,90,92,17.2450584059329,6941.74290724156,183.923388183266,0,0
126,7853.3935535523,8000,7800,91.7658905670408,90,92,17.2155909657942,6922.34082449367,183.955427400674,0,0
127,7840.04516516422,8000,7800,91.8439270446939,90,92,17.1915782930855,6907.78926243276,183.979591909869,0,0
128,7830.03387387317,8000,7800,91.8959513631292,90,92,17.1723104810034,6896.87559088707,183.997791811036,0,0
129,7822.52540540487,8000,7800,91.9306342420862,90,92,17.1570289606676,6888.6903372278,184.011485003453,0,0
130,7816.89405405366,8000,7800,91.9537561613908,90,92,17.145018151446,6882.55139698335,184.021779330469,0,0
131,7812.67054054024,8000,7800,91.9691707742605,90,92,17.1356456511566,6877.94719180001,184.029513859507,0,0
132,7809.50290540518,8000,7800,91.9794471828403,90,92,17.1283743733274,6874.49403791251,184.035322526755,0,0
133,7807.12717905389,8000,7800,91.9862981218936,90,92,17.122760159699,6871.90417249688,184.03968340531,0,0
134,7805.34538429041,8000,7800,91.9908654145957,90,92,17.1184425858825,6869.96177343516,184.042956529974,0,0
135,7804.00903821781,8000,7800,91.9939102763971,90,92,17.1151332580779,6868.50497413887,184.045412761748,0,0
136,7803.00677866336,8000,7800,91.9959401842648,90,92,17.1126038947403,6867.41237466665,184.047255717028,0,0
137,7802.25508399752,8000,7800,91.9972934561765,90,92,17.1106753259863,6866.59292506249,184.048638373283,0,0
138,7801.69131299814,8000,7800,91.998195637451,90,92,17.1092078846228,6865.97833785937,184.049675612958,0,0
139,7801.2684847486,8000,7800,91.998797091634,90,92,17.108093301753,6865.51739745703,184.050453681963,0,0
140,7800.95136356145,8000,7800,91.9991980610893,90,92,17.1072480340448,6865.17169215527,184.051037312063,0,0
141,7800.71352267109,8000,7800,91.9994653740596,90,92,17.1066078648976,6864.91241317895,184.051475078714,0,0
142,7800.53514200332,8000,7800,91.9996435827064,90,92,17.106123593462,6864.71795394672,184.051803428498,0,0
143,7800.40135650249,8000,7800,91.9997623884709,90,92,17.1057576273364,6864.57210952254,184.052049704786,0,0
144,7800.30101737687,8000,7800,91.9998415923139,90,92,17.1054813112935,6864.4627262044,184.052234419848,0,0
145,7800.22576303265,8000,7800,91.999894394876,90,92,17.105272846754,6864.3806887158,184.05237296056,0,0
146,7800.16932227449,8000,7800,91.999929596584,90,92,17.105115680074,6864.31916059935,184.052476868576,0,0
147,7800.12699170587,8000,7800,91.9999530643893,90,92,17.1049972595782,6864.27301451201,184.052554800985,0,0
148,7800.0952437794,8000,7800,91.9999687095929,90,92,17.104908080565,6864.23840494651,184.052613251077,0,0
149,7800.07143283455,8000,7800,91.9999791397286,90,88,17.1048409538852,6864.21244777238,184.052657089089,0,0
150,7800.05357462591,8000,7800,90.6666527598191,90,88,16.8568948960654,6864.19297989179,184.052689967846,0,0
151,7800.04018096943,8000,7800,89.777768506546,90,88,16.6915941459583,6864.17837898134,184.052714627053,0,0
152,7800.03013572708,8000,7800,89.185179004364,90,88,16.5813909245385,6864.16742829851,184.052733121538,0,0
153,7800.02260179531,8000,7800,88.7901193362427,90,88,16.5079199754082,6864.15921528638,184.052746992445,0,0
154,7800.01695134648,8000,7800,88.5267462241618,90,88,16.4589376945974,6864.15305552728,184.052757395651,0,0
155,7800.01271350986,8000,7800,88.3511641494412,90,88,16.4262815812208,6864.14843570796,184.052765198069,0,0
156,7800.0095351324,8000,7800,88.2341094329608,90,88,16.4045098826128,6864.14497084347,184.052771049891,0,0
157,7800.0071513493,8000,7800,88.1560729553072,90,88,16.3899946937414,6864.14237219511,184.052775438761,0,0
158,7800.00536351197,8000,7800,88.1040486368715,90,88,16.3803173558786,6864.14042320883,184.052778730417,0,0
159,7800.00402263398,8000,7800,88.0693657579143,90,88,16.3738653868757,6864.13896146912,184.05278119916,0,0
160,7800.00301697548,8000,7800,88.0462438386095,90,88,16.3695637656531,6864.13786516434,184.052783050718,0,0
161,7800.00226273161,8000,7800,88.0308292257397,90,88,16.3666957863895,6864.13704293576,184.052784439387,0,0
162,7800.00169704871,8000,7800,88.0205528171598,90,88,16.364783626194,6864.13642626432,184.052785480888,0,0
163,7800.00127278653,8000,7800,88.0137018781065,90,88,16.3635087221238,6864.13596376074,184.052786262015,0,0
164,7800.0009545899,8000,7800,88.0091345854044,90,88,16.3626586880764,6864.13561688306,184.05278684786,0,0
165,7800.00071594242,8000,7800,88.0060897236029,90,88,16.362091925188,6864.13535672479,184.052787287244,0,0
166,7800.00053695682,8000,7800,88.0040598157353,90,88,16.3617140281084,6864.13516160609,184.052787616782,0,0
167,7800.00040271761,8000,7800,88.0027065438235,90,88,16.3614620553508,6864.13501526707,184.052787863935,0,0
168,7800.00030203821,8000,7800,88.001804362549,90,88,16.3612940424811,6864.1349055128,184.0527880493,0,0
169,7800.00022652866,8000,7800,88.001202908366,90,88,16.3611820106264,6864.1348231971,184.052788188324,0,0
170,7800.00016989649,8000,7800,88.0008019389107,90,88,16.3611073052664,6864.13476146033,184.052788292592,0,0
171,7800.00012742237,8000,7800,88.0005346259404,90,88,16.3610574886,6864.13471515775,184.052788370793,0,0
172,7800.00009556678,8000,7800,88.0003564172936,90,88,16.3610242676691,6864.13468043081,184.052788429444,0,0
173,7800.00007167508,8000,7800,88.0002376115291,90,88,16.3610021130168,6864.13465438561,184.052788473432,0,0
174,7800.00005375631,8000,7800,88.0001584076861,90,88,16.3609873377248,6864.13463485171,184.052788506423,0,0
175,7800.00004031723,8000,7800,88.000105605124,90,88,16.3609774833872,6864.13462020128,184.052788531166,0,0
176,7800.00003023793,8000,7800,88.000070403416,90,88,16.3609709107216,6864.13460921346,184.052788549723,0,0
177,7800.00002267844,8000,7800,88.0000469356107,90,88,16.3609665266142,6864.1346009726,184.052788563641,0,0
178,7800.00001700883,8000,7800,88.0000312904071,90,88,16.3609636021281,6864.13459479195,184.05278857408,0,0
179,7800.00001275663,8000,8200,88.0000208602714,90,92,16.3609616511598,6864.13459015646,184.052788581909,0,0
180,7900.00000956747,8002.5,8202.5,89.3333472401809,90.010470848326,92.010470848326,16.8905056291962,6973.14821167985,183.87195963025,-0.00171587319904351,-0.00235424163018323
181,7975.6250071756,8005,8205,90.2257217762293,90.0209085881112,92.0209085881112,17.2743563866312,7055.58976297863,183.739444918773,-0.00171569579416722,-0.00218869892595096
182,8032.9687553817,8007.5,8207.5,90.8241173801899,90.0312879098241,92.0312879098241,17.5531285157402,7118.10226160898,183.641303819464,-0.00171560392693066,-0.00189660856428817
