time,WOB,WOB_0,WOB_SP,RPM,RPM_0,RPM_SP,ROP,T,MSE,dMSEdWOB,dMSEdRPM
[s],[kg],[kg],[kg],[rpm],[rpm],[rpm],[m/hr],[Nm],[MPa],[MPa/kg],[MPa/rpm]
0,2000,8000,8000,33.3333333333333,100,100,0.60053717775074,949.975875,261.686601017816,0,0
1,3500,8000,8000,55.5555555555556,100,100,2.79715035620547,2176.54870125,214.780927499294,0,0
2,4625,8000,8000,70.3703703703704,100,100,6.03903976288678,3402.9519825,197.194829216254,0,0
3,5468.75,8000,8000,80.2469135802469,100,100,9.02134629004708,4322.7544434375,191.347809128388,0,0
4,6101.5625,8000,8000,86.8312757201646,100,100,11.4939683258839,5012.60628914062,188.533500550881,0,0
5,6576.171875,8000,8000,91.2208504801097,100,100,13.4400125259227,5529.99517341797,186.937475056191,0,0
6,6932.12890625,8000,8000,94.1472336534065,100,100,14.927755581151,5918.03683662598,185.945731742963,0,0
7,7199.0966796875,8000,8000,96.0981557689377,100,100,16.0459485375843,6209.06808403198,185.293462753297,0,0
8,7399.32250976563,8000,8000,97.3987705126251,100,100,16.8779732290236,6427.34151958649,184.848039930016,0,0
9,7549.49188232422,8000,8000,98.2658470084167,100,100,17.4934731623991,6591.04659625236,184.535905965698,0,0
10,7662.11891174316,8000,8000,98.8438980056112,100,100,17.9473664383212,6713.82540375177,184.313150977654,0,0
11,7746.58918380737,8000,8000,99.2292653370741,100,100,18.2816056372032,6805.90950937633,184.152087315267,0,0
12,7809.94188785553,8000,8000,99.4861768913827,100,100,18.5276513766648,6874.97258859475,184.034517142404,0,0
13,7857.45641589165,8000,8000,99.6574512609218,100,100,18.7088399976312,6926.76989800856,183.948095464216,0,0
14,7893.09231191874,8000,8000,99.7716341739479,100,100,18.8423727190211,6965.61788006892,183.884242770736,0,0
15,7919.81923393905,8000,8000,99.8477561159653,100,100,18.9408856195493,6994.75386661419,183.836885357993,0,0
16,7939.86442545429,8000,8000,99.8985040773102,100,100,19.013647129124,7016.60585652314,183.801662522965,0,0
17,7954.89831909072,8000,8000,99.9323360515401,100,100,19.067453448018,7032.99484895486,183.775409764522,0,0
18,7966.17373931804,8000,8000,99.9548907010267,100,100,19.1072902936274,7045.28659327864,183.755811945729,0,0
19,7974.63030448853,8000,8000,99.9699271340178,100,100,19.1368186564423,7054.50540152148,183.741164895516,0,0
20,7980.9727283664,8000,8000,99.9799514226786,100,100,19.1587300764496,7061.41950770361,183.730208348087,0,0
21,7985.7295462748,8000,8000,99.9866342817857,100,100,19.1750060711312,7066.60508734021,183.722007051921,0,0
22,7989.2971597061,8000,8000,99.9910895211905,100,100,19.1871075191326,7070.49427206766,183.715865122304,0,0
23,7991.97286977957,8000,8000,99.9940596807936,100,100,19.1961129892302,7073.41116061324,183.711263752315,0,0
24,7993.97965233468,8000,8000,99.9960397871958,100,100,19.2028198892525,7075.59882702243,183.707815576892,0,0
25,7995.48473925101,8000,8000,99.9973598581305,100,100,19.2078185332611,7077.23957682932,183.705231047984,0,0
26,7996.61355443826,8000,8000,99.9982399054203,100,100,19.2115464642751,7078.47013918449,183.703293552113,0,0
27,7997.46016582869,8000,8000,99.9988266036136,100,100,19.2143283622136,7079.39306095087,183.701840936625,0,0
28,7998.09512437152,8000,8000,99.9992177357424,100,100,19.2164054109561,7080.08525227565,183.700751759747,0,0
29,7998.57134327864,8000,8000,99.9994784904949,100,100,19.2179569437903,7080.60439576924,183.699935037201,0,0
30,7998.92850745898,8000,8000,99.9996523269966,100,100,19.21911642231,7080.99375338943,183.699322585333,0,0
31,7999.19638059424,8000,8000,99.9997682179977,100,100,19.2199832494837,7081.28577160457,183.698863297072,0,0
32,7999.39728544568,8000,8000,99.9998454786652,100,100,19.2206315148972,7081.50478526593,183.698518859357,0,0
33,7999.54796408426,8000,8000,99.9998969857768,100,100,19.2211164770682,7081.66904551195,183.698260547089,0,0
34,7999.66097306319,8000,8000,99.9999313238512,100,100,19.2214793739812,7081.79224069646,183.698066821899,0,0
35,7999.7457297974,8000,8000,99.9999542159008,100,100,19.2217509967948,7081.88463708485,183.697921533073,0,0
36,7999.80929734805,8000,8000,99.9999694772672,100,100,19.2219543472935,7081.95393437613,183.697812569305,0,0
37,7999.85697301103,8000,8000,99.9999796515115,100,100,19.2221066157446,7082.0059073446,183.697730848082,0,0
38,7999.89272975828,8000,8000,99.999986434341,100,100,19.2222206541267,7082.04488707095,183.697669558067,0,0
39,7999.91954731871,8000,8000,99.9999909562273,100,100,19.2223060742719,7082.07412186571,183.697623591062,0,0
40,7999.93966048903,8000,8000,99.9999939708182,100,100,19.2223700669514,7082.09604796178,183.697589116095,0,0
41,7999.95474536677,8000,8000,99.9999959805455,100,100,19.2224180131737,7082.11249253384,183.697563260029,0,0
42,7999.96605902508,8000,8000,99.9999973203636,100,100,19.2224539406485,7082.12482596288,183.697543868071,0,0
43,7999.97454426881,8000,8000,99.9999982135758,100,100,19.222480864793,7082.13407603466,183.697529324152,0,0
44,7999.98090820161,8000,8000,99.9999988090505,100,100,19.2225010435935,7082.14101358849,183.697518416242,0,0
45,7999.98568115121,8000,8000,99.9999992060337,100,100,19.2225161681553,7082.14621675387,183.697510235326,0,0
46,7999.9892608634,8000,8000,99.9999994706891,100,100,19.2225275052176,7082.1501191279,183.697504099647,0,0
47,7999.99194564755,8000,8000,99.9999996471261,100,100,19.2225360037748,7082.15304590843,183.697499497894,0,0
48,7999.99395923566,8000,8000,99.9999997647507,100,100,19.2225423748665,7082.15524099382,183.697496046581,0,0
49,7999.99546942675,8000,8000,99.9999998431671,100,100,19.222547151301,7082.15688730786,183.697493458099,0,0
50,7999.99660207006,8000,8000,99.9999998954448,100,100,19.2225507323708,7082.1581220434,183.697491516737,0,0
51,7999.99745155255,8000,8000,99.9999999302965,100,100,19.2225534173357,7082.15904809505,183.697490060717,0,0
52,7999.99808866441,8000,8000,99.999999953531,100,100,19.2225554305011,7082.15974263379,183.697488968702,0,0
53,7999.99856649831,8000,8000,99.9999999690207,100,100,19.222556940003,7082.16026353784,183.697488149691,0,0
54,7999.99892487373,8000,8000,99.9999999793471,100,100,19.2225580718813,7082.16065421588,183.697487535433,0,0
55,7999.9991936553,8000,8000,99.9999999862314,100,100,19.2225589206246,7082.16094722441,183.697487074739,0,0
56,7999.99939524147,8000,8000,99.9999999908209,100,100,19.2225595570718,7082.16116698081,183.697486729219,0,0
57,7999.99954643111,8000,8000,99.9999999938806,100,100,19.2225600343336,7082.16133179811,183.697486470079,0,0
58,7999.99965982333,8000,8000,99.9999999959204,100,100,19.222560392231,7082.16145541108,183.697486275724,0,0
59,7999.9997448675,8000,8000,99.9999999972803,100,100,19.2225606606214,7082.16154812081,183.697486129958,0,0
60,7999.99980865062,8000,8200,99.9999999981869,100,102,19.2225608618924,7082.16161765311,183.697486020633,0,0
61,8049.99985648797,8000,8200,100.666666665458,100,102,19.5094033688036,7136.66848230233,183.612535160152,0,0
62,8087.49989236598,8000,8200,101.111111110305,100,102,19.7150821464104,7177.54863078925,183.549791906071,0,0
63,8115.62491927448,8000,8200,101.40740740687,100,102,19.8627764259642,7208.20874215444,183.503269875599,0,0
64,8136.71868945586,8000,8200,101.604938271247,100,102,19.9690392322286,7231.20382567833,183.468675331256,0,0
65,8152.5390170919,8000,8200,101.736625514165,100,102,20.0456653841762,7248.45013832125,183.442894734896,0,0
66,8164.40426281892,8000,8200,101.824417009443,100,102,20.1010548543947,7261.38487280343,183.423651551141,0,0
67,8173.30319711419,8000,8200,101.882944672962,100,102,20.1411937736097,7271.08592366508,183.409270758745,0,0
68,8179.97739783564,8000,8200,101.921963115308,100,102,20.1703542969111,7278.36171181131,183.398514060006,0,0
69,8184.98304837673,8000,8200,101.947975410205,100,102,20.1915914734089,7283.81855292098,183.390462736458,0,0
70,8188.73728628255,8000,8200,101.965316940137,100,102,20.2070951591774,7287.91118375324,183.384433334206,0,0
71,8191.55296471191,8000,8200,101.976877960091,100,102,20.2184390994575,7290.98065687743,183.37991638646,0,0
72,8193.66472353393,8000,8200,101.984585306728,100,102,20.226757325482,7293.28276172057,183.376531542655,0,0
73,8195.24854265045,8000,8200,101.989723537818,100,102,20.2328692522992,7295.00934035292,183.373994520824,0,0
74,8196.43640698784,8000,8200,101.993149025212,100,102,20.2373685739894,7296.3042743272,183.372092659947,0,0
75,8197.32730524088,8000,8200,101.995432683475,100,102,20.2406865854974,7297.2754748079,183.370666773334,0,0
76,8197.99547893066,8000,8200,101.996955122317,100,102,20.2431374088832,7298.00387516842,183.369597644588,0,0
77,8198.49660919799,8000,8200,101.997970081544,100,102,20.2449503868896,7298.55017543882,183.36879595897,0,0
78,8198.8724568985,8000,8200,101.99864672103,100,102,20.2462933526878,7298.95990064161,183.368194785265,0,0
79,8199.15434267387,8000,8200,101.99909781402,100,102,20.2472893945564,7299.26719454371,183.367743955887,0,0
80,8199.3657570054,8000,8200,101.99939854268,100,102,20.2480289689665,7299.49766497028,183.367405862482,0,0
81,8199.52431775405,8000,8200,101.999599028453,100,102,20.2485786774444,7299.67051779021,183.36715230853,0,0
82,8199.64323831554,8000,8200,101.999732685635,100,102,20.2489876434151,7299.80015740516,183.366962152122,0,0
83,8199.73242873665,8000,8200,101.999821790424,100,102,20.2492921573842,7299.89738711637,183.36681953991,0,0
84,8199.79932155249,8000,8200,101.999881193616,100,102,20.2495190690631,7299.97030939978,183.366712583616,0,0
85,8199.84949116437,8000,8200,101.999920795744,100,102,20.2496882702276,7300.02500111233,183.366632368007,0,0
86,8199.88711837328,8000,8200,101.999947197163,100,102,20.2498145160066,7300.06601989675,183.366572207207,0,0
87,8199.91533877996,8000,8200,101.999964798108,100,102,20.2499087635957,7300.09678398506,183.366527087117,0,0
88,8199.93650408497,8000,8200,101.999976532072,100,102,20.2499791581161,7300.1198570513,183.366493247336,0,0
89,8199.95237806373,8000,8200,101.999984354715,100,98,20.2500317598883,7300.13716185097,183.366467867662,0,0
90,8199.9642835478,8000,8200,100.666656236477,100,98,19.9853642432085,7300.15014045073,183.366448832997,0,0
91,8199.97321266085,8000,8200,99.7777708243177,100,98,19.8089217970403,7300.15987440055,183.36643455705,0,0
92,8199.97990949564,8000,8200,99.1851805495451,100,98,19.6912955484277,7300.16717486291,183.366423850118,0,0
93,8199.98493212173,8000,8200,98.7901203663634,100,98,19.6128796485368,7300.17265020968,183.366415819935,0,0
94,8199.98869909129,8000,8200,98.526746910909,100,98,19.5606036126106,7300.17675671976,183.366409797307,0,0
95,8199.99152431847,8000,8200,98.3511646072726,100,98,19.525753860634,7300.17983660232,183.366405280341,0,0
96,8199.99364323885,8000,8200,98.2341097381818,100,98,19.50252140445,7300.18214651424,183.366401892619,0,0
97,8199.99523242914,8000,8200,98.1560731587878,100,98,19.4870336380878,7300.18387894818,183.36639935183,0,0
98,8199.99642432186,8000,8200,98.1040487725252,100,98,19.4767088657882,7300.18517827364,183.366397446238,0,0
99,8199.99731824139,8000,8200,98.0693658483501,100,98,19.469825989189,7300.18615276773,183.366396017045,0,0
100,8199.99798868104,8000,8200,98.0462438989001,100,98,19.4652376339788,7300.1868836383,183.366394945151,0,0
101,8199.99849151078,8000,8200,98.0308292659334,100,98,19.4621789026416,7300.18743179122,183.36639414123,0,0
102,8199.99886863309,8000,8200,98.0205528439556,100,98,19.4601398776411,7300.18784290592,183.36639353829,0,0
103,8199.99915147481,8000,8200,98.0137018959704,100,98,19.4587806246202,7300.18815124194,183.366393086085,0,0
104,8199.99936360611,8000,8200,98.0091345973136,100,98,19.4578745287047,7300.18838249395,183.366392746931,0,0
105,8199.99952270458,8000,8200,98.0060897315424,100,98,19.4572705193501,7300.18855593297,183.366392492565,0,0
106,8199.99964202844,8000,8200,98.0040598210283,100,98,19.4568678873965,7300.18868601222,183.366392301791,0,0
107,8199.99973152133,8000,8200,98.0027065473522,100,98,19.45659949681,7300.18878357167,183.366392158711,0,0
108,8199.999798641,8000,8200,98.0018043649014,100,98,19.4564205927912,7300.18885674125,183.3663920514,0,0
109,8199.99984898075,8000,8200,98.0012029099343,100,98,19.4563013407254,7300.18891161844,183.366391970918,0,0
110,8199.99988673556,8000,8200,98.0008019399562,100,98,19.4562218523087,7300.18895277633,183.366391910555,0,0
111,8199.99991505167,8000,8200,98.0005346266375,100,98,19.4561688697516,7300.18898364475,183.366391865284,0,0
112,8199.99993628875,8000,8200,98.0003564177583,100,98,19.4561335553374,7300.18900679606,183.36639183133,0,0
113,8199.99995221657,8000,8200,98.0002376118389,100,98,19.4561100178627,7300.18902415954,183.366391805865,0,0
114,8199.99996416242,8000,8200,98.0001584078926,100,98,19.4560943303139,7300.18903718216,183.366391786766,0,0
115,8199.99997312182,8000,8200,98.0001056052617,100,98,19.4560838750238,7300.18904694912,183.366391772442,0,0
116,8199.99997984136,8000,8200,98.0000704035078,100,98,19.4560769071373,7300.18905427434,183.366391761699,0,0
117,8199.99998488102,8000,8200,98.0000469356719,100,98,19.4560722636097,7300.18905976825,183.366391753641,0,0
118,8199.99998866077,8000,8200,98.0000312904479,100,98,19.4560691692223,7300.18906388869,183.366391747598,0,0
119,8199.99999149557,8000,7800,98.0000208602986,100,102,19.4560671072706,7300.18906697902,183.366391743066,0,0
120,8099.99999362168,8000,7800,99.3333472401991,100,102,19.4075938910839,7191.17544429676,183.529059100283,0,0
121,8024.99999521626,8000,7800,100.222231493466,100,102,19.3442757044069,7109.41522728507,183.654823686804,0,0
122,7968.74999641219,8000,7800,100.814820995644,100,102,19.279862482599,7048.0950645263,183.75134513534,0,0
123,7926.56249730915,8000,7800,101.209880663763,100,102,19.2207949789887,7002.10494245723,183.825008201251,0,0
124,7894.92187298186,8000,7800,101.473253775842,100,102,19.1695853600842,6967.61235090542,183.880986521788,0,0
125,7871.19140473639,8000,7800,101.648835850561,100,102,19.1267035185944,6941.74290724156,183.923388183266,0,0
126,7853.3935535523,8000,7800,101.765890567041,100,102,19.0916247360127,6922.34082449367,183.955427400674,0,0
127,7840.04516516422,8000,7800,101.843927044694,100,102,19.0634035564717,6907.78926243276,183.979591909869,0,0
128,7830.03387387317,8000,7800,101.895951363129,100,102,19.0409793642653,6896.87559088707,183.997791811036,0,0
129,7822.52540540487,8000,7800,101.930634242086,100,102,19.0233305588364,6888.6903372278,184.011485003453,0,0
130,7816.89405405366,8000,7800,101.953756161391,100,102,19.0095442857949,6882.55139698335,184.021779330469,0,0
131,7812.67054054024,8000,7800,101.969170774261,100,102,18.9988401876407,6877.94719180001,184.029513859507,0,0
132,7809.50290540518,8000,7800,101.97944718284,100,102,18.9905702114127,6874.49403791251,184.035322526755,0,0
133,7807.12717905389,8000,7800,101.986298121894,100,102,18.9842069739853,6871.90417249688,184.03968340531,0,0
134,7805.34538429041,8000,7800,101.990865414596,100,102,18.9793276323195,6869.96177343516,184.042956529974,0,0
135,7804.00903821781,8000,7800,101.993910276397,100,102,18.975596978628,6868.50497413887,184.045412761748,0,0
136,7803.00677866336,8000,7800,101.995940184265,100,102,18.9727516208752,6867.41237466665,184.047255717028,0,0
137,7802.25508399752,8000,7800,101.997293456177,100,102,18.9705860563098,6866.59292506249,184.048638373283,0,0
138,7801.69131299814,8000,7800,101.998195637451,100,102,18.9689408680878,6865.97833785937,184.049675612958,0,0
139,7801.2684847486,8000,7800,101.998797091634,100,102,18.9676929750741,6865.51739745703,184.050453681963,0,0
140,7800.95136356145,8000,7800,101.999198061089,100,102,18.9667477247579,6865.17169215527,184.051037312063,0,0
141,7800.71352267109,8000,7800,101.99946537406,100,102,18.9660325686547,6864.91241317895,184.051475078714,0,0
142,7800.53514200332,8000,7800,101.999643582706,100,102,18.9654920570022,6864.71795394672,184.051803428498,0,0
143,7800.40135650249,8000,7800,101.999762388471,100,102,18.9650839107139,6864.57210952254,184.052049704786,0,0
144,7800.30101737687,8000,7800,101.999841592314,100,102,18.9647759595489,6864.4627262044,184.052234419849,0,0
145,7800.22576303265,8000,7800,101.999894394876,100,102,18.9645437686679,6864.3806887158,184.05237296056,0,0
146,7800.16932227449,8000,7800,101.999929596584,100,102,18.9643688072317,6864.31916059935,184.052476868576,0,0
147,7800.12699170587,8000,7800,101.999953064389,100,102,18.9642370406688,6864.27301451201,184.052554800985,0,0
148,7800.0952437794,8000,7800,101.999968709593,100,102,18.9641378521052,6864.23840494651,184.052613251077,0,0
149,7800.07143283455,8000,7800,101.999979139729,100,98,18.9640632182627,6864.21244777238,184.052657089089,0,0
150,7800.05357462591,8000,7800,100.666652759819,100,98,18.7161115300708,6864.19297989179,184.052689967846,0,0
151,7800.04018096943,8000,7800,99.777768506546,100,98,18.5508065571847,6864.17837898134,184.052714627054,0,0
152,7800.03013572708,8000,7800,99.185179004364,100,98,18.4406001686806,6864.16742829851,184.052733121538,0,0
153,7800.02260179531,8000,7800,98.7901193362427,100,98,18.3671268442371,6864.15921528638,184.052746992445,0,0
154,7800.01695134648,8000,7800,98.5267462241618,100,98,18.3181427819414,6864.15305552728,184.052757395651,0,0
155,7800.01271350986,8000,7800,98.3511641494412,100,98,18.2854853324511,6864.14843570796,184.052765198069,0,0
156,7800.0095351324,8000,7800,98.2341094329608,100,98,18.2637126317578,6864.14497084347,184.052771049891,0,0
157,7800.0071513493,8000,7800,98.1560729553072,100,98,18.2491966913225,6864.14237219511,184.052775438761,0,0
158,7800.00536351197,8000,7800,98.1040486368715,100,98,18.2395187897867,6864.14042320883,184.052778730417,0,0
159,7800.00402263398,8000,7800,98.0693657579143,100,98,18.2330663980291,6864.13896146912,184.05278119916,0,0
160,7800.00301697548,8000,7800,98.0462438386095,100,98,18.2287644597405,6864.13786516434,184.052783050718,0,0
161,7800.00226273161,8000,7800,98.0308292257397,100,98,18.2258962426774,6864.13704293576,184.052784439386,0,0
162,7800.00169704871,8000,7800,98.0205528171598,100,98,18.2239839041322,6864.13642626432,184.052785480888,0,0
163,7800.00127278653,8000,7800,98.0137018781065,100,98,18.2227088662998,6864.13596376074,184.052786262015,0,0
164,7800.0009545899,8000,7800,98.0091345854044,100,98,18.2218587319307,6864.13561688306,184.05278684786,0,0
165,7800.00071594242,8000,7800,98.0060897236029,100,98,18.2212918938011,6864.13535672479,184.052787287244,0,0
166,7800.00053695682,8000,7800,98.0040598157353,100,98,18.2209139402905,6864.13516160609,184.052787616782,0,0
167,7800.00040271761,8000,7800,98.0027065438235,100,98,18.2206619252097,6864.13501526707,184.052787863935,0,0
168,7800.00030203821,8000,7800,98.001804362549,100,98,18.2204938805976,6864.1349055128,184.0527880493,0,0
169,7800.00022652866,8000,7800,98.001202908366,100,98,18.2203818249361,6864.1348231971,184.052788188324,0,0
170,7800.00016989649,8000,7800,98.0008019389107,100,98,18.2203071017209,6864.13476146033,184.052788292592,0,0
171,7800.00012742237,8000,7800,98.0005346259404,100,98,18.2202572716632,6864.13471515775,184.052788370793,0,0
172,7800.00009556678,8000,7800,98.0003564172936,100,98,18.2202240406889,6864.13468043081,184.052788429444,0,0
173,7800.00007167508,8000,7800,98.0002376115291,100,98,18.220201878504,6864.13465438561,184.052788473432,0,0
174,7800.00005375631,8000,7800,98.0001584076861,100,98,18.2201870975625,6864.13463485171,184.052788506423,0,0
175,7800.00004031723,8000,7800,98.000105605124,100,98,18.2201772389878,6864.13462020128,184.052788531166,0,0
176,7800.00003023793,8000,7800,98.000070403416,100,98,18.2201706631444,6864.13460921346,184.052788549723,0,0
177,7800.00002267844,8000,7800,98.0000469356107,100,98,18.2201662766536,6864.1346009726,184.052788563641,0,0
178,7800.00001700883,8000,7800,98.0000312904071,100,98,18.2201633503799,6864.13459479195,184.05278857408,0,0
179,7800.00001275663,8000,8200,98.0000208602714,100,102,18.2201613980711,6864.13459015646,184.052788581909,0,0
