time,WOB,WOB_0,WOB_SP,RPM,RPM_0,RPM_SP,ROP,T,MSE,dMSEdWOB,dMSEdRPM
[s],[kg],[kg],[kg],[rpm],[rpm],[rpm],[m/hr],[Nm],[MPa],[MPa/kg],[MPa/rpm]
0,3250,13000,13000,30,90,90,1.2739996786116,1904.01463875,222.711304634264,0,0
1,5687.5,13000,13000,50,90,90,5.96583239595051,4561.221748125,190.265432940766,0,0
2,7515.625,13000,13000,63.3333333333333,90,90,11.2070956532219,6554.12708015625,184.604750613812,0,0
3,8886.71875,13000,13000,72.2222222222222,90,90,15.9020522825272,8048.80607917969,182.385144151052,0,0
4,9915.0390625,13000,13000,78.1481481481481,90,90,19.7404842321607,9169.81532844727,181.258713544553,0,0
5,10686.279296875,13000,13000,82.0987654320988,90,90,22.7347220228656,10010.5722653979,180.60736958969,0,0
6,11264.7094726563,13000,13000,84.7325102880658,90,90,25.0093116732359,10641.139968111,180.200048722812,0,0
7,11698.5321044922,13000,13000,86.4883401920439,90,90,26.7105124934187,11114.0657451457,179.931910945014,0,0
8,12023.8990783691,13000,13000,87.6588934613626,90,90,27.9712443522481,11468.7600779218,179.749041687203,0,0
9,12267.9243087769,13000,13000,88.4392623075751,90,90,28.9006768365427,11734.7808275038,179.621153669045,0,0
10,12450.9432315826,13000,13000,88.95950820505,90,90,29.5840049737342,11934.2963896904,179.530076900665,0,0
11,12588.207423687,13000,13000,89.3063388033667,90,90,30.0858359495359,12083.9330613303,179.464347640499,0,0
12,12691.1555677652,13000,13000,89.5375592022445,90,90,30.4543486084565,12196.1605650602,179.416444100902,0,0
13,12768.3666758239,13000,13000,89.6917061348296,90,90,30.7251154198881,12280.3311928577,179.38128923615,0,0
14,12826.2750068679,13000,13000,89.7944707565531,90,90,30.9240183635627,12343.4591637057,179.356725302084,0,0
15,12869.706255151,13000,13000,89.8629805043687,90,90,31.0681469163152,12390.8051418418,179.351869890872,0,0
16,12902.2796913632,13000,13000,89.9086536695792,90,90,31.1726158884774,12426.3146254439,179.35836185855,0,0
17,12926.7097685224,13000,13000,89.9391024463861,90,90,31.2487239526052,12452.9467381454,179.368797035293,0,0
18,12945.0323263918,13000,13000,89.9594016309241,90,90,31.3044080605432,12472.9208226715,179.379686305774,0,0
19,12958.7742447939,13000,13000,89.972934420616,90,90,31.3452955990138,12487.9013860662,179.38954024431,0,0
20,12969.0806835954,13000,13000,89.9819562804107,90,90,31.3754089393355,12499.1368086121,179.397860061831,0,0
21,12976.8105126965,13000,13000,89.9879708536071,90,90,31.3976433769511,12507.5633755216,179.4046116789,0,0
22,12982.6078845224,13000,13000,89.9919805690714,90,90,31.4140954031152,12513.8833007037,179.409956869116,0,0
23,12986.9559133918,13000,13000,89.9946537127143,90,90,31.4262907856016,12518.6232445903,179.414120293121,0,0
24,12990.2169350439,13000,13000,89.9964358084762,90,90,31.4353446880235,12522.1782025052,179.417327471107,0,0
25,12992.6627012829,13000,13000,89.9976238723175,90,90,31.442075111997,12524.8444209414,179.419779011117,0,0
26,12994.4970259622,13000,13000,89.9984159148783,90,90,31.4470839124086,12526.8440847686,179.42164272297,0,0
27,12995.8727694716,13000,13000,89.9989439432522,90,90,31.4508150536183,12528.3438326389,179.423054022367,0,0
28,12996.9045771037,13000,13000,89.9992959621681,90,90,31.4535967470734,12529.4686435417,179.424119725742,0,0
29,12997.6784328278,13000,13000,89.9995306414454,90,90,31.4556720831018,12530.3122517188,179.424922826453,0,0
30,12998.2588246208,13000,13000,89.9996870942969,90,90,31.4572213936051,12530.9449578516,179.42552714349,0,0
31,12998.6941184656,13000,13000,89.999791396198,90,90,31.4583786371043,12531.4194874512,179.425981396941,0,0
32,12999.0205888492,13000,13000,89.9998609307986,90,90,31.4592434410225,12531.7753846509,179.426322589378,0,0
33,12999.2654416369,13000,13000,89.9999072871991,90,90,31.4598899755066,12532.0423075507,179.426578720661,0,0
34,12999.4490812277,13000,13000,89.9999381914661,90,90,31.4603735071487,12532.2424997255,179.426770922179,0,0
35,12999.5868109208,13000,13000,89.9999587943107,90,90,31.4607352485452,12532.3926438566,179.426915111222,0,0
36,12999.6901081906,13000,13000,89.9999725295405,90,90,31.4610059527814,12532.505251955,179.427023260992,0,0
37,12999.7675811429,13000,13000,89.9999816863603,90,90,31.461208581482,12532.5897080287,179.427104368948,0,0
38,12999.8256858572,13000,13000,89.9999877909069,90,90,31.4613602876625,12532.653050084,179.427165191556,0,0
39,12999.8692643929,13000,13000,89.9999918606046,90,90,31.4614738909483,12532.7005566255,179.427210799882,0,0
40,12999.9019482947,13000,13000,89.9999945737364,90,90,31.4615589761536,12532.7361865317,179.427244998656,0,0
41,12999.926461221,13000,13000,89.9999963824909,90,90,31.4616227120578,12532.7629089612,179.427270641793,0,0
42,12999.9448459158,13000,13000,89.9999975883273,90,90,31.4616704620833,12532.7829507834,179.427289869641,0,0
43,12999.9586344368,13000,13000,89.9999983922182,90,90,31.4617062400554,12532.7979821501,179.427304287219,0,0
44,12999.9689758276,13000,13000,89.9999989281455,90,90,31.4617330505337,12532.8092556751,179.427315098027,0,0
45,12999.9767318707,13000,13000,89.9999992854303,90,90,31.461753143076,12532.8177108188,179.427323204453,0,0
46,12999.982548903,13000,13000,89.9999995236202,90,90,31.4617682022814,12532.8240521766,179.427329283098,0,0
47,12999.9869116773,13000,13000,89.9999996824135,90,90,31.46177948989,12532.8288081949,179.427333841269,0,0
48,12999.990183758,13000,13000,89.9999997882756,90,90,31.4617879510693,12532.8323752087,179.427337259338,0,0
49,12999.9926378185,13000,13000,89.9999998588504,90,90,31.4617942939374,12532.835050469,179.427339822508,0,0
50,12999.9944783638,13000,13000,89.9999999059003,90,90,31.4617990490785,12532.8370569143,179.427341744624,0,0
51,12999.9958587729,13000,13000,89.9999999372668,90,90,31.4618026140949,12532.8385617482,179.427343186035,0,0
52,12999.9968940797,13000,13000,89.9999999581779,90,90,31.4618052869646,12532.8396903737,179.427344266974,0,0
53,12999.9976705597,13000,13000,89.9999999721186,90,90,31.4618072910219,12532.8405368427,179.427345077597,0,0
54,12999.9982529198,13000,13000,89.9999999814124,90,90,31.4618087936684,12532.8411716946,179.427345685511,0,0
55,12999.9986896899,13000,13000,89.9999999876083,90,90,31.461809920389,12532.8416478334,179.427346141409,0,0
56,12999.9990172674,13000,13000,89.9999999917388,90,90,31.4618107652532,12532.8420049376,179.427346483309,0,0
57,12999.9992629505,13000,13000,89.9999999944926,90,90,31.461811398784,12532.8422727657,179.427346739717,0,0
58,12999.9994472129,13000,13000,89.9999999963284,90,90,31.4618118738538,12532.8424736368,179.427346932012,0,0
59,12999.9995854097,13000,13000,89.9999999975523,90,90,31.461812230104,12532.8426242901,179.427347076226,0,0
60,12999.9996890573,13000,13200,89.9999999983682,90,92,31.4618124972568,12532.8427372801,179.427347184382,0,0
61,13049.9997667929,13000,13200,90.6666666655788,90,92,31.8152528235182,12587.3496345225,179.531318395304,0,0
62,13087.4998250947,13000,13200,91.1111111103858,90,92,32.0581798357899,12628.2298074544,179.629709931252,0,0
63,13115.624868821,13000,13200,91.4074074069239,90,92,32.2260616981832,12658.8899371533,179.713179877024,0,0
64,13136.7186516158,13000,13200,91.6049382712826,90,92,32.3426776662756,12681.8850344275,179.780245970265,0,0
65,13152.5389887118,13000,13200,91.7366255141884,90,92,32.4240751802215,12699.1313573831,179.832506721339,0,0
66,13164.4042415339,13000,13200,91.8244170094589,90,92,32.4811512025612,12712.0660995998,179.872487293279,0,0
67,13173.3031811504,13000,13200,91.8829446729726,90,92,32.5213480424103,12721.7671562624,179.902725014331,0,0
68,13179.9773858628,13000,13200,91.9219631153151,90,92,32.5497758637081,12729.0429487593,179.925429931968,0,0
69,13184.9830393971,13000,13200,91.94797541021,90,92,32.5699611078924,12734.499793132,179.942401974988,0,0
70,13188.7372795478,13000,13200,91.96531694014,90,92,32.5843488497595,12738.5924264115,179.955053924638,0,0
71,13191.5529596609,13000,13200,91.9768779600933,90,92,32.5946420517527,12741.6619013711,179.964470608153,0,0
72,13193.6647197457,13000,13200,91.9845853067289,90,92,32.6020319509648,12743.9640075908,179.971473781351,0,0
73,13195.2485398092,13000,13200,91.9897235378193,90,92,32.6073553198545,12745.6905872556,179.97668061931,0,0
74,13196.4364048569,13000,13200,91.9931490252128,90,92,32.6112023273426,12746.9855220042,179.980552164195,0,0
75,13197.3273036427,13000,13200,91.9954326834752,90,92,32.6139908544987,12747.9567230657,179.983431691318,0,0
76,13197.995477732,13000,13200,91.9969551223168,90,92,32.6160179207733,12748.6851238617,179.985574303264,0,0
77,13198.496608299,13000,13200,91.9979700815446,90,92,32.6174954208255,12749.2314244588,179.987169391637,0,0
78,13198.8724562243,13000,13200,91.9986467210297,90,92,32.6185750605614,12749.6411499066,179.988357512882,0,0
79,13199.1543421682,13000,13200,91.9990978140198,90,92,32.6193658266549,12749.9484439925,179.98924298636,0,0
80,13199.3657566261,13000,13200,91.9993985426799,90,92,32.619946273463,12750.1789145568,179.989903261862,0,0
81,13199.5243174696,13000,13200,91.9995990284532,90,92,32.6203731982411,12750.3517674801,179.990395868824,0,0
82,13199.6432381022,13000,13200,91.9997326856355,90,92,32.6206877894944,12750.4814071726,179.99076356523,0,0
83,13199.7324285767,13000,13200,91.9998217904237,90,92,32.6209200005869,12750.5786369419,179.99103815078,0,0
84,13199.7993214325,13000,13200,91.9998811936158,90,92,32.6210916720919,12750.651559269,179.991243290903,0,0
85,13199.8494910744,13000,13200,91.9999207957438,90,92,32.621218768636,12750.7062510142,179.991396608937,0,0
86,13199.8871183058,13000,13200,91.9999471971626,90,92,32.6213129867636,12750.7472698232,179.991511236999,0,0
87,13199.9153387293,13000,13200,91.9999647981084,90,92,32.6213829144199,12750.7780339299,179.991596966388,0,0
88,13199.936504047,13000,13200,91.9999765320723,90,92,32.6214348696744,12750.8011070099,179.991661101574,0,0
89,13199.9523780352,13000,13200,91.9999843547148,90,88,32.6214735092012,12750.8184118199,179.991709094641,0,0
90,13199.9642835264,13000,13200,90.6666562364766,90,88,32.1746484217511,12750.8313904274,179.848106160441,0,0
91,13199.9732126448,13000,13200,89.7777708243177,90,88,31.8749643298395,12750.8411243831,179.760204858902,0,0
92,13199.9799094836,13000,13200,89.1851805495451,90,88,31.6743911189453,12750.8484248498,179.705094580792,0,0
93,13199.9849321127,13000,13200,88.7901203663634,90,88,31.540332531033,12750.8539001999,179.669908806302,0,0
94,13199.9886990845,13000,13200,88.526746910909,90,88,31.4508094493418,12750.8580067124,179.647143597399,0,0
95,13199.9915243134,13000,13200,88.3511646072726,90,88,31.3910611398564,12750.8610865968,179.632274821746,0,0
96,13199.9936432351,13000,13200,88.2341097381818,90,88,31.3511998361515,12750.8633965101,179.622499464316,0,0
97,13199.9952324263,13000,13200,88.1560731587878,90,88,31.3246129071368,12750.8651289451,179.616043680919,0,0
98,13199.9964243197,13000,13200,88.1040487725252,90,88,31.3068827689996,12750.8664282713,179.611767102969,0,0
99,13199.9973182398,13000,13200,88.0693658483501,90,88,31.2950603221992,12750.867402766,179.60892825649,0,0
100,13199.9979886798,13000,13200,88.0462438989001,90,88,31.2871777165348,12750.868133637,179.607041177882,0,0
101,13199.9984915099,13000,13200,88.0308292659334,90,88,31.2819222666033,12750.8686817902,179.605785609286,0,0
102,13199.9988686324,13000,13200,88.0205528439556,90,88,31.2784185047233,12750.8690929052,179.604949701778,0,0
103,13199.9991514743,13000,13200,88.0137018959704,90,88,31.276082636328,12750.8694012414,179.60439296174,0,0
104,13199.9993636057,13000,13200,88.0091345973136,90,88,31.2745254011627,12750.8696324935,179.604022057333,0,0
105,13199.9995227043,13000,13200,88.0060897315424,90,88,31.2734872658889,12750.8698059327,179.603774915849,0,0
106,13199.9996420282,13000,13200,88.0040598210283,90,88,31.2727951979119,12750.869936012,179.603610222694,0,0
107,13199.9997315212,13000,13200,88.0027065473522,90,88,31.2723338386156,12750.8700335715,179.603500465576,0,0
108,13199.9997986409,13000,13200,88.0018043649014,90,88,31.272026281468,12750.8701067411,179.603427317325,0,0
109,13199.9998489807,13000,13200,88.0012029099343,90,88,31.2718212556903,12750.8701616183,179.603378566716,0,0
110,13199.9998867355,13000,13200,88.0008019399562,90,88,31.2716845813162,12750.8702027763,179.603346076377,0,0
111,13199.9999150516,13000,13200,88.0005346266375,90,88,31.2715934722802,12750.8702336447,179.603324423213,0,0
112,13199.9999362887,13000,13200,88.0003564177583,90,88,31.2715327383798,12750.870256796,179.603309992849,0,0
113,13199.9999522165,13000,13200,88.0002376118389,90,88,31.2714922532264,12750.8702741595,179.603300376319,0,0
114,13199.9999641624,13000,13200,88.0001584078926,90,88,31.2714652662185,12750.8702871821,179.60329396804,0,0
115,13199.9999731218,13000,13200,88.0001056052617,90,88,31.2714472772048,12750.8702969491,179.603289697891,0,0
116,13199.9999798414,13000,13200,88.0000704035078,90,88,31.2714352862745,12750.8703042743,179.603286852645,0,0
117,13199.999984881,13000,13200,88.0000469356719,90,88,31.2714272936308,12750.8703097682,179.603284956949,0,0
118,13199.9999886608,13000,13200,88.0000312904479,90,88,31.2714219661846,12750.8703138887,179.603283694003,0,0
119,13199.9999914956,13000,12800,88.0000208602986,90,92,31.271418415291,12750.870316979,179.603282852675,0,0
120,13099.9999936217,13000,12800,89.3333472401991,90,92,31.4860746481674,12641.8566942968,179.521136872088,0,0
121,13024.9999952163,13000,12800,90.2222314934661,90,92,31.6013952577257,12560.0964772851,179.468198341088,0,0
122,12968.7499964122,13000,12800,90.814820995644,90,92,31.6582887232293,12498.7763145263,179.434951995343,0,0
123,12926.5624973091,13000,12800,91.2098806637627,90,92,31.6803037285374,12452.7861924572,179.422260822274,0,0
124,12894.9218729819,13000,12800,91.4732537758418,90,92,31.6809912932702,12418.2936009054,179.433817122969,0,0
125,12871.1914047364,13000,12800,91.6488358505612,90,92,31.6739328247988,12392.4241572416,179.440556111502,0,0
126,12853.3935535523,13000,12800,91.7658905670408,90,92,31.6636442348614,12373.0220744937,179.444377012284,0,0
127,12840.0451651642,13000,12800,91.8439270446939,90,92,31.6526231025375,12358.4705124328,179.446457906916,0,0
128,12830.0338738732,13000,12800,91.8959513631292,90,92,31.6421660216516,12347.5568408871,179.44751748756,0,0
129,12822.5254054049,13000,12800,91.9306342420862,90,92,31.6328682106941,12339.3715872278,179.447989712502,0,0
130,12816.8940540537,13000,12800,91.9537561613908,90,92,31.6249278028603,12333.2326469833,179.448134417492,0,0
131,12812.6705405402,13000,12800,91.9691707742605,90,92,31.6183293444695,12328.6284418,179.448105628593,0,0
132,12809.5029054052,13000,12800,91.9794471828403,90,92,31.6129525682827,12325.1752879125,179.447993293425,0,0
133,12807.1271790539,13000,12800,91.9862981218936,90,92,31.6086351606244,12322.5854224969,179.447848691371,0,0
134,12805.3453842904,13000,12800,91.9908654145957,90,92,31.6052074820671,12320.6430234352,179.447699911145,0,0
135,12804.0090382178,13000,12800,91.9939102763971,90,92,31.6025104568788,12319.1862241389,179.447561288135,0,0
136,12803.0067786634,13000,12800,91.9959401842648,90,92,31.600403596205,12318.0936246667,179.447439156151,0,0
137,12802.2550839975,13000,12800,91.9972934561765,90,92,31.5987674390905,12317.2741750625,179.447335339831,0,0
138,12801.6913129981,13000,12800,91.998195637451,90,92,31.5975030089164,12316.6595878594,179.447249256788,0,0
139,12801.2684847486,13000,12800,91.998797091634,90,92,31.5965298280553,12316.198647457,179.447179163143,0,0
140,12800.9513635615,13000,12800,91.9991980610893,90,92,31.5957833799103,12315.8529421553,179.4471228725,0,0
141,12800.7135226711,13000,12800,91.9994653740596,90,92,31.5952125077223,12315.593663179,179.447078153574,0,0
142,12800.5351420033,13000,12800,91.9996435827064,90,92,31.5947769994223,12315.3992039467,179.44704293432,0,0
143,12800.4013565025,13000,12800,91.9997623884709,90,92,31.5944454672853,12315.2533595225,179.447015392076,0,0
144,12800.3010173769,13000,12800,91.9998415923139,90,92,31.5941935519783,12315.1439762044,179.446993978858,0,0
145,12800.2257630326,13000,12800,91.999894394876,90,92,31.5940024386434,12315.0619387158,179.446977411811,0,0
146,12800.1693222745,13000,12800,91.999929596584,90,92,31.5938576527581,12315.0004105994,179.446964646796,0,0
147,12800.1269917059,13000,12800,91.9999530643893,90,92,31.5937480962896,12314.954264512,179.446954845586,0,0
148,12800.0952437794,13000,12800,91.9999687095929,90,92,31.5936652843502,12314.9196549465,179.446947342486,0,0
149,12800.0714328345,13000,12800,91.9999791397286,90,88,31.5936027457361,12314.8936977724,179.446941613373,0,0
150,12800.0535746259,13000,12800,90.6666527598191,90,88,31.1481119710125,12314.8742298918,179.37596255115,0,0
151,12800.0401809694,13000,12800,89.777768506546,90,88,30.8442009677878,12314.8596289813,179.367331258137,0,0
152,12800.0301357271,13000,12800,89.185179004364,90,88,30.6399512420113,12314.8486782985,179.370992369218,0,0
153,12800.0226017953,13000,12800,88.7901193362427,90,88,30.5033903134276,12314.8404652864,179.375746407421,0,0
154,12800.0169513465,13000,12800,88.5267462241618,90,88,30.4121766797989,12314.8343055273,179.379941209517,0,0
155,12800.0127135099,13000,12800,88.3511641494412,90,88,30.3512910579439,12314.829685708,179.38319274052,0,0
156,12800.0095351324,13000,12800,88.2341094329608,90,88,30.3106664988687,12314.8262208435,179.38556244637,0,0
157,12800.0071513493,13000,12800,88.1560729553072,90,88,30.2835680674698,12314.8236221951,179.387231991817,0,0
158,12800.005363512,13000,12800,88.1040486368715,90,88,30.2654954076547,12314.8216732088,179.388384905658,0,0
159,12800.004022634,13000,12800,88.0693657579143,90,88,30.2534436802928,12314.8202114691,179.389171249253,0,0
160,12800.0030169755,13000,12800,88.0462438386095,90,88,30.2454076117706,12314.8191151643,179.389703369434,0,0
161,12800.0022627316,13000,12800,88.0308292257397,90,88,30.2400494360746,12314.8182929358,179.390061631178,0,0
162,12800.0016970487,13000,12800,88.0205528171598,90,88,30.2364768949239,12314.8176762643,179.390302040685,0,0
163,12800.0012727865,13000,12800,88.0137018781065,90,88,30.2340949598203,12314.8172137607,179.390463015438,0,0
164,12800.0009545899,13000,12800,88.0091345854044,90,88,30.2325068565283,12314.8168668831,179.390570647393,0,0
165,12800.0007159424,13000,12800,88.0060897236029,90,88,30.2314480262705,12314.8166067248,179.39064254492,0,0
166,12800.0005369568,13000,12800,88.0040598157353,90,88,30.2307420751305,12314.8164116061,179.390690542133,0,0
167,12800.0004027176,13000,12800,88.0027065438235,90,88,30.2302713958077,12314.8162652671,179.390722570918,0,0
168,12800.0003020382,13000,12800,88.001804362549,90,88,30.2299575770016,12314.8161555128,179.3907439382,0,0
169,12800.0002265287,13000,12800,88.001202908366,90,88,30.2297483406123,12314.8160731971,179.39075819047,0,0
170,12800.0001698965,13000,12800,88.0008019389107,90,88,30.2296088320598,12314.8160114603,179.390767695922,0,0
171,12800.0001274224,13000,12800,88.0005346259404,90,88,30.2295158132552,12314.8159651577,179.390774035122,0,0
172,12800.0000955668,13000,12800,88.0003564172936,90,88,30.2294537909434,12314.8159304308,179.390778262608,0,0
173,12800.0000716751,13000,12800,88.0002376115291,90,88,30.2294124354269,12314.8159043856,179.390781081805,0,0
174,12800.0000537563,13000,12800,88.0001584076861,90,88,30.2293848596115,12314.8158848517,179.39078296186,0,0
175,12800.0000403172,13000,12800,88.000105605124,90,88,30.2293664716356,12314.8158702013,179.390784215646,0,0
176,12800.0000302379,13000,12800,88.000070403416,90,88,30.2293542099129,12314.8158592135,179.390785051802,0,0
177,12800.0000226784,13000,12800,88.0000469356107,90,88,30.229346033128,12314.8158509726,179.390785609458,0,0
178,12800.0000170088,13000,12800,88.0000312904071,90,88,30.229340580211,12314.8158447919,179.39078598139,0,0
179,12800.0000127566,13000,13200,88.0000208602714,90,92,30.2293369436379,12314.8158401565,179.390786229464,0,0
